# omega0=1, alpha=2
# theta0=0.1, theta_dot0=0
# t_start=0, t_end=50, h=0.00911928
#   t          x(t)                 v(t)       
0  1.000000000000000e-01  0.000000000000000e+00
9.119282013323059e-02 9.960927930137303e-02 -8.310650950326258e-03
1.823856402664613e-01 9.852825857978963e-02 -1.517292873185186e-02
2.735784603996920e-01 9.688019665353387e-02 -2.077642165899031e-02
3.647712805329227e-01 9.477209080587033e-02 -2.528860771647510e-02
4.559641006661534e-01 9.229658074660060e-02 -2.885727433501983e-02
5.471569207993838e-01 8.953364357259437e-02 -3.161268651173681e-02
6.383497409326140e-01 8.655210156178454e-02 -3.366952740812526e-02
7.295425610658441e-01 8.341096251942900e-02 -3.512863370071697e-02
8.207353811990743e-01 8.016061044703895e-02 -3.607854614939605e-02
9.119282013323045e-01 7.684386251846059e-02 -3.659689409738691e-02
1.003121021465535e+00 7.349690671806081e-02 -3.675163094101721e-02
1.094313841598765e+00 7.015013301525801e-02 -3.660213602146289e-02
1.185506661731995e+00 6.682886960901080e-02 -3.620019690586337e-02
1.276699481865225e+00 6.355403456577562e-02 -3.559088464811571e-02
1.367892301998455e+00 6.034271208489949e-02 -3.481333335283225e-02
1.459085122131685e+00 5.720866164639161e-02 -3.390143420845335e-02
1.550277942264916e+00 5.416276741769174e-02 -3.288445310380708e-02
1.641470762398146e+00 5.121343450900918e-02 -3.178757999113151e-02
1.732663582531376e+00 4.836693796217868e-02 -3.063241730119784e-02
1.823856402664606e+00 4.562772972752607e-02 -2.943741394555177e-02
1.915049222797836e+00 4.299870831938272e-02 -2.821825074968058e-02
2.006242042931067e+00 4.048145533672232e-02 -2.698818254185716e-02
2.097434863064297e+00 3.807644258465820e-02 -2.575834156854607e-02
2.188627683197527e+00 3.578321312959009e-02 -2.453800641203344e-02
2.279820503330757e+00 3.360053926055988e-02 -2.333484014330525e-02
2.371013323463987e+00 3.152656000732578e-02 -2.215510104760638e-02
2.462206143597217e+00 2.955890057773770e-02 -2.100382890654527e-02
2.553398963730448e+00 2.769477581956960e-02 -1.988500950454531e-02
2.644591783863678e+00 2.593107958180638e-02 -1.880171974483406e-02
2.735784603996908e+00 2.426446164461016e-02 -1.775625550739019e-02
2.826977424130138e+00 2.269139370323179e-02 -1.675024415511592e-02
2.918170244263368e+00 2.120822572669450e-02 -1.578474339210697e-02
3.009363064396598e+00 1.981123386510977e-02 -1.486032799670822e-02
3.100555884529828e+00 1.849666094815958e-02 -1.397716578981264e-02
3.191748704663059e+00 1.726075049996243e-02 -1.313508405357369e-02
3.282941524796289e+00 1.609977509076734e-02 -1.233362748557284e-02
3.374134344929519e+00 1.501005975238466e-02 -1.157210865692447e-02
3.465327165062749e+00 1.398800110079147e-02 -1.084965183839388e-02
3.556519985195979e+00 1.303008273489447e-02 -1.016523096508918e-02
3.647712805329209e+00 1.213288741405229e-02 -9.517702426536160e-03
3.738905625462440e+00 1.129310645780979e-02 -8.905833293950430e-03
3.830098445595670e+00 1.050754675862162e-02 -8.328325529381250e-03
3.921291265728900e+00 9.773135751462575e-03 -7.783836661310347e-03
4.012484085862130e+00 9.086924642528737e-03 -7.270997357522562e-03
4.103676905995361e+00 8.446090162179743e-03 -6.788426277975248e-03
4.194869726128591e+00 7.847935074367485e-03 -6.334742547397324e-03
4.286062546261821e+00 7.289887645600536e-03 -5.908576148924184e-03
4.377255366395051e+00 6.769500250611188e-03 -5.508576505751301e-03
4.468448186528281e+00 6.284447268968708e-03 -5.133419487145368e-03
4.559641006661511e+00 5.832522406600590e-03 -4.781813047807778e-03
4.650833826794742e+00 5.411635558257900e-03 -4.452501685199782e-03
4.742026646927972e+00 5.019809311135779e-03 -4.144269877705406e-03
4.833219467061202e+00 4.655175175906767e-03 -3.855944647151150e-03
4.924412287194432e+00 4.315969619137515e-03 -3.586397371972853e-03
5.015605107327662e+00 4.000529960255090e-03 -3.334544961997087e-03
5.106797927460892e+00 3.707290186742779e-03 -3.099350492186674e-03
5.197990747594122e+00 3.434776732930077e-03 -2.879823380607575e-03
5.289183567727353e+00 3.181604260465626e-03 -2.675019185145773e-03
5.380376387860583e+00 2.946471472207818e-03 -2.484039083992745e-03
5.471569207993813e+00 2.728156985730297e-03 -2.306029096496394e-03
5.562762028127043e+00 2.525515287825100e-03 -2.140179093523929e-03
5.653954848260273e+00 2.337472787210749e-03 -1.985721639899280e-03
5.745147668393503e+00 2.163023979041729e-03 -1.841930705666150e-03
5.836340488526734e+00 2.001227731702907e-03 -1.708120277804424e-03
5.927533308659964e+00 1.851203703698264e-03 -1.583642899516844e-03
6.018726128793194e+00 1.712128896155205e-03 -1.467888160237026e-03
6.109918948926424e+00 1.583234344516665e-03 -1.360281156028485e-03
6.201111769059654e+00 1.463801951341759e-03 -1.260280936993122e-03
6.292304589192884e+00 1.353161460744605e-03 -1.167378955638357e-03
6.383497409326115e+00 1.250687573837653e-03 -1.081097527821293e-03
6.474690229459345e+00 1.155797203581031e-03 -1.000988315857487e-03
6.565883049592575e+00 1.067946866647511e-03 -9.266308416164749e-04
6.657075869725805e+00 9.866302092708446e-04 -8.576310358954218e-04
6.748268689859035e+00 9.113756635333231e-04 -7.936198290386868e-04
6.839461509992265e+00 8.417442301486981e-04 -7.342517866302793e-04
6.930654330125495e+00 7.773273834934422e-04 -6.792037931063319e-04
7.021847150258726e+00 7.177450944189129e-04 -6.281737852964909e-04
7.113039970391956e+00 6.626439662272211e-04 -5.808795371892958e-04
7.204232790525186e+00 6.116954791038509e-04 -5.370574966118835e-04
7.295425610658416e+00 5.645943382610235e-04 -4.964616740051321e-04
7.386618430791646e+00 5.210569210492848e-04 -4.588625830496180e-04
7.477811250924876e+00 4.808198183337110e-04 -4.240462325448085e-04
7.569004071058107e+00 4.436384654992774e-04 -3.918131686543186e-04
7.660196891191337e+00 4.092858585419251e-04 -3.619775663954614e-04
7.751389711324567e+00 3.775513508130141e-04 -3.343663690643349e-04
7.842582531457797e+00 3.482395261111487e-04 -3.088184741418010e-04
7.933775351591027e+00 3.211691439532994e-04 -2.851839641151892e-04
8.024968171724257e+00 2.961721530037455e-04 -2.633233805703331e-04
8.116160991857488e+00 2.730927687920766e-04 -2.431070398541980e-04
8.207353811990718e+00 2.517866120081162e-04 -2.244143885759674e-04
8.298546632123948e+00 2.321199038203588e-04 -2.071333972006229e-04
8.389739452257178e+00 2.139687148237510e-04 -1.911599899907841e-04
8.480932272390408e+00 1.972182643811348e-04 -1.763975095672640e-04
8.572125092523638e+00 1.817622672793075e-04 -1.627562143841701e-04
8.663317912656868e+00 1.675023247745629e-04 -1.501528074484740e-04
8.754510732790099e+00 1.543473572530571e-04 -1.385099946550610e-04
8.845703552923329e+00 1.422130758778003e-04 -1.277560711548851e-04
8.936896373056559e+00 1.310214907360874e-04 -1.178245342247198e-04
9.028089193189789e+00 1.207004531384034e-04 -1.086537211610050e-04
9.119282013323019e+00 1.111832298520215e-04 -1.001864707765301e-04
9.210474833456249e+00 1.024081071795031e-04 -9.236980713634353e-05
9.301667653589480e+00 9.431802291400053e-05 -8.515464422768020e-05
9.392860473722710e+00 8.686022431961511e-05 -7.849551031727912e-05
9.484053293855940e+00 7.998595039608926e-05 -7.235029080774298e-05
9.575246113989170e+00 7.365013679284372e-05 -6.667998846218673e-05
9.666438934122400e+00 6.781114183790122e-05 -6.144849992300069e-05
9.757631754255630e+00 6.243049224266183e-05 -5.662240750586283e-05
9.848824574388860e+00 5.747264713394235e-05 -5.217078530395954e-05
9.940017394522091e+00 5.290477915030429e-05 -4.806501868955869e-05
1.003121021465532e+01 4.869657142062866e-05 -4.427863635049592e-05
1.012240303478855e+01 4.482002931931478e-05 -4.078715404769906e-05
1.021359585492178e+01 4.124930596455892e-05 -3.756792932652505e-05
1.030478867505501e+01 3.796054049408002e-05 -3.460002645938481e-05
1.039598149518824e+01 3.493170821658604e-05 -3.186409093986749e-05
1.048717431532147e+01 3.214248179739165e-05 -2.934223288935214e-05
1.057836713545470e+01 2.957410269308652e-05 -2.701791877592593e-05
1.066955995558793e+01 2.720926210318742e-05 -2.487587088234584e-05
1.076075277572116e+01 2.503199075646144e-05 -2.290197399482139e-05
1.085194559585439e+01 2.302755689624957e-05 -2.108318881760810e-05
1.094313841598762e+01 2.118237187281459e-05 -1.940747164983634e-05
1.103433123612085e+01 1.948390279164418e-05 -1.786369989071591e-05
1.112552405625408e+01 1.792059170491367e-05 -1.644160296731440e-05
1.121671687638731e+01 1.648178086909997e-05 -1.513169830556948e-05
1.130790969652054e+01 1.515764362518376e-05 -1.392523199012764e-05
1.139910251665377e+01 1.393912048911527e-05 -1.281412378206983e-05
1.149029533678700e+01 1.281786006938123e-05 -1.179091618565362e-05
1.158148815692023e+01 1.178616445572282e-05 -1.084872727593766e-05
1.167268097705346e+01 1.083693874843217e-05 -9.981207018622395e-06
1.176387379718669e+01 9.963644421314531e-06 -9.182496831703907e-06
1.185506661731992e+01 9.160256233448666e-06 -8.447192155658492e-06
1.194625943745315e+01 8.421222425412469e-06 -7.770307814913758e-06
1.203745225758638e+01 7.741427954759947e-06 -7.147245968376940e-06
1.212864507771961e+01 7.116160543329626e-06 -6.573766460838712e-06
1.221983789785284e+01 6.541079325519823e-06 -6.045959400206157e-06
1.231103071798607e+01 6.012185902063032e-06 -5.560219797793496e-06
1.240222353811930e+01 5.525797618146573e-06 -5.113224120364335e-06
1.249341635825254e+01 5.078522898031048e-06 -4.701908613322237e-06
1.258460917838577e+01 4.667238480679502e-06 -4.323449264433064e-06
1.267580199851900e+01 4.289068412391878e-06 -3.975243286776591e-06
1.276699481865223e+01 3.941364663100674e-06 -3.654892008307481e-06
1.285818763878546e+01 3.621689242880662e-06 -3.360185063496307e-06
1.294938045891869e+01 3.327797704410055e-06 -3.089085790057110e-06
1.304057327905192e+01 3.057623925642021e-06 -2.839717740784177e-06
1.313176609918515e+01 2.809266074849285e-06 -2.610352227050804e-06
1.322295891931838e+01 2.580973667534076e-06 -2.399396816597980e-06
1.331415173945161e+01 2.371135631490684e-06 -2.205384713891105e-06
1.340534455958484e+01 2.178269302605968e-06 -2.026964956575833e-06
1.349653737971807e+01 2.001010279819322e-06 -1.862893366446283e-06
1.358773019985130e+01 1.838103073070524e-06 -1.712024197874875e-06
1.367892301998453e+01 1.688392483072008e-06 -1.573302430866271e-06
1.377011584011776e+01 1.550815656379925e-06 -1.445756659810015e-06
1.386130866025099e+01 1.424394763532382e-06 -1.328492532638050e-06
1.395250148038422e+01 1.308230251998095e-06 -1.220686698463496e-06
1.404369430051745e+01 1.201494629357500e-06 -1.121581224903864e-06
1.413488712065068e+01 1.103426735542442e-06 -1.030478449192082e-06
1.422607994078391e+01 1.013326466109927e-06 -9.467362298681305e-07
1.431727276091714e+01 9.305499114385159e-07 -8.697635683373083e-07
1.440846558105037e+01 8.545048794301824e-07 -7.990165718921115e-07
1.449965840118360e+01 7.846467717916849e-07 -7.339947319360700e-07
1.459085122131683e+01 7.204747862727868e-07 -6.742374931318048e-07
1.468204404145006e+01 6.615284193677471e-07 -6.193210910331101e-07
1.477323686158329e+01 6.073842459543118e-07 -5.688556374625479e-07
1.486442968171652e+01 5.576529541628704e-07 -5.224824344715447e-07
1.495562250184975e+01 5.119766154486210e-07 -4.798714991783997e-07
1.504681532198298e+01 4.700261713917766e-07 -4.407192831293710e-07
1.513800814211621e+01 4.314991201846064e-07 -4.047465710769810e-07
1.522920096224944e+01 3.961173870882767e-07 -3.716965452251715e-07
1.532039378238267e+01 3.636253643652653e-07 -3.413330020597681e-07
1.541158660251590e+01 3.337881073221649e-07 -3.134387098711976e-07
1.550277942264913e+01 3.063896741400348e-07 -2.878138959904343e-07
1.559397224278236e+01 2.812315981316283e-07 -2.642748536041989e-07
1.568516506291559e+01 2.581314819528899e-07 -2.426526587965804e-07
1.577635788304882e+01 2.369217041156710e-07 -2.227919891862083e-07
1.586755070318205e+01 2.174482289048686e-07 -2.045500361952699e-07
1.595874352331528e+01 1.995695115009450e-07 -1.877955036030892e-07
1.604993634344851e+01 1.831554907524984e-07 -1.724076856064638e-07
1.614112916358174e+01 1.680866626373370e-07 -1.582756181349662e-07
1.623232198371497e+01 1.542532279981857e-07 -1.452972976552344e-07
1.632351480384820e+01 1.415543086442406e-07 -1.333789621468912e-07
1.641470762398143e+01 1.298972263755543e-07 -1.224344293469546e-07
1.650590044411466e+01 1.191968399166966e-07 -1.123844877420049e-07
1.659709326424789e+01 1.093749351420853e-07 -1.031563361403737e-07
1.668828608438112e+01 1.003596643403925e-07 -9.468306798241884e-08
1.677947890451435e+01 9.208503060189796e-08 -8.690319684762456e-08
1.687067172464758e+01 8.449041372277729e-08 -7.976021989470813e-08
1.696186454478081e+01 7.752013430612211e-08 -7.320221622689939e-08
1.705305736491404e+01 7.112305300286771e-08 -6.718147741071300e-08
1.714425018504727e+01 6.525220207849692e-08 -6.165416759437202e-08
1.723544300518050e+01 5.986444671499422e-08 -5.658001087296208e-08
1.732663582531373e+01 5.492017366353186e-08 -5.192200373269276e-08
1.741782864544696e+01 5.038300505314457e-08 -4.764615057751383e-08
1.750902146558019e+01 4.621953533545806e-08 -4.372122049888584e-08
1.760021428571342e+01 4.239908950654510e-08 -4.011852359476112e-08
1.769140710584665e+01 3.889350089527063e-08 -3.681170527773868e-08
1.778259992597988e+01 3.567690694404632e-08 -3.377655713578970e-08
1.787379274611311e+01 3.272556153366525e-08 -3.099084302271830e-08
1.796498556624634e+01 3.001766251967476e-08 -2.843413916037138e-08
1.805617838637957e+01 2.753319325435099e-08 -2.608768713123330e-08
1.814737120651280e+01 2.525377696648491e-08 -2.393425872907163e-08
1.823856402664603e+01 2.316254296153876e-08 -2.195803171733112e-08
1.832975684677927e+01 2.124400368790056e-08 -2.014447562054560e-08
1.842094966691250e+01 1.948394179151500e-08 -1.848024674365631e-08
1.851214248704573e+01 1.786930635162576e-08 -1.695309167825277e-08
1.860333530717896e+01 1.638811755520640e-08 -1.555175861381790e-08
1.869452812731219e+01 1.502937912732878e-08 -1.426591582645701e-08
1.878572094744542e+01 1.378299788962761e-08 -1.308607676768642e-08
1.887691376757865e+01 1.263970986954449e-08 -1.200353122198780e-08
1.896810658771188e+01 1.159101242952149e-08 -1.101028204430981e-08
1.905929940784511e+01 1.062910192808341e-08 -1.009898702780605e-08
1.915049222797834e+01 9.746816464094080e-09 -9.262905488101940e-09
1.924168504811157e+01 8.937583291666825e-09 -8.495849183526973e-09
1.933287786824480e+01 8.195370526503961e-09 -7.792137221257996e-09
1.942407068837803e+01 7.514642795064169e-09 -7.146554627400859e-09
1.951526350851126e+01 6.890320506123605e-09 -6.554314284883802e-09
1.960645632864449e+01 6.317742450201544e-09 -6.011021966822349e-09
1.969764914877772e+01 5.792631456144932e-09 -5.512644214905064e-09
1.978884196891095e+01 5.311062856074410e-09 -5.055478832492273e-09
1.988003478904418e+01 4.869435530039863e-09 -4.636127780653985e-09
1.997122760917741e+01 4.464445320257573e-09 -4.251472282426000e-09
2.006242042931064e+01 4.093060621832845e-09 -3.898649956252297e-09
2.015361324944387e+01 3.752499972531150e-09 -3.575033814015056e-09
2.024480606957710e+01 3.440211478557201e-09 -3.278212972331160e-09
2.033599888971033e+01 3.153853926536195e-09 -3.005974938007299e-09
2.042719170984356e+01 2.891279444057653e-09 -2.756289339779679e-09
2.051838452997679e+01 2.650517582325873e-09 -2.527292988796701e-09
2.060957735011002e+01 2.429760704740560e-09 -2.317276159805609e-09
2.070077017024325e+01 2.227350574679599e-09 -2.124669993743232e-09
2.079196299037648e+01 2.041766044439776e-09 -1.948034930467389e-09
2.088315581050971e+01 1.871611755272186e-09 -1.786050087755432e-09
2.097434863064294e+01 1.715607765783560e-09 -1.637503509491415e-09
2.106554145077617e+01 1.572580032714877e-09 -1.501283212211064e-09
2.115673427090940e+01 1.441451674302329e-09 -1.376368964917844e-09
2.124792709104263e+01 1.321234952116961e-09 -1.261824742364357e-09
2.133911991117586e+01 1.211023912508724e-09 -1.156791796848065e-09
2.143031273130909e+01 1.109987633585440e-09 -1.060482298033209e-09
2.152150555144232e+01 1.017364028071693e-09 -9.721734944131138e-10
2.161269837157555e+01 9.324541564483151e-10 -8.912023537978191e-10
2.170389119170878e+01 8.546170084991226e-10 -8.169606436778501e-10
2.179508401184201e+01 7.832647148143680e-10 -7.488904155003062e-10
2.188627683197524e+01 7.178581529446538e-10 -6.864798598210109e-10
2.197746965210847e+01 6.579029157873308e-10 -6.292595019868796e-10
2.206866247224170e+01 6.029456124404043e-10 -5.767987104750548e-10
2.215985529237493e+01 5.525704741957726e-10 -5.287024922873164e-10
2.225104811250816e+01 5.063962405817678e-10 -4.846085518859004e-10
2.234224093264139e+01 4.640733024205664e-10 -4.441845920751038e-10
2.243343375277462e+01 4.252810807539029e-10 -4.071258369954984e-10
2.252462657290785e+01 3.897256222242917e-10 -3.731527590168850e-10
2.261581939304108e+01 3.571373930911380e-10 -3.420089928037958e-10
2.270701221317431e+01 3.272692555232368e-10 -3.134594211940803e-10
2.279820503330754e+01 2.998946111517657e-10 -2.872884187866475e-10
2.288939785344077e+01 2.748056981007298e-10 -2.632982402877966e-10
2.298059067357400e+01 2.518120288438147e-10 -2.413075417250194e-10
2.307178349370723e+01 2.307389572759978e-10 -2.211500236103086e-10
2.316297631384046e+01 2.114263643425671e-10 -2.026731860288472e-10
2.325416913397369e+01 1.937274524443637e-10 -1.857371864499364e-10
2.334536195410692e+01 1.775076396424573e-10 -1.702137918110210e-10
2.343655477424015e+01 1.626435454239413e-10 -1.559854171181687e-10
2.352774759437338e+01 1.490220604684742e-10 -1.429442434423132e-10
2.361894041450661e+01 1.365394934775451e-10 -1.309914087746016e-10
2.371013323463984e+01 1.251007886997334e-10 -1.200362657404962e-10
2.380132605477307e+01 1.146188083096474e-10 -1.099957006647636e-10
2.389251887490630e+01 1.050136742795944e-10 -1.007935089317010e-10
2.398371169503953e+01 9.621216482486799e-11 -9.235982200017317e-11
2.407490451517276e+01 8.814716090908424e-11 -8.463058181428984e-11
2.416609733530600e+01 8.075713866821355e-11 -7.754705870059679e-11
2.425729015543923e+01 7.398570395357819e-11 -7.105540916403448e-11
2.434848297557246e+01 6.778116550761685e-11 -6.510627028997468e-11
2.443967579570569e+01 6.209614357395996e-11 -5.965438773052170e-11
2.453086861583892e+01 5.688721100742699e-11 -5.465827450193638e-11
2.462206143597215e+01 5.211456419189085e-11 -5.007989804832058e-11
2.471325425610538e+01 4.774172129633586e-11 -4.588439323625284e-11
2.480444707623861e+01 4.373524560350395e-11 -4.203979913742251e-11
2.489563989637184e+01 4.006449183277921e-11 -3.851681763287532e-11
2.498683271650507e+01 3.670137355078680e-11 -3.528859203455041e-11
2.507802553663830e+01 3.362014992084312e-11 -3.233050406854222e-11
2.516921835677153e+01 3.079723018705623e-11 -2.961998770105061e-11
2.526041117690476e+01 2.821099442160491e-11 -2.713635841328986e-11
2.535160399703799e+01 2.584162918550469e-11 -2.486065664663066e-11
2.544279681717122e+01 2.367097686489807e-11 -2.277550424479317e-11
2.553398963730445e+01 2.168239754741266e-11 -2.086497281676939e-11
2.562518245743768e+01 1.986064239717229e-11 -1.911446303304059e-11
2.571637527757091e+01 1.819173757332110e-11 -1.751059394922519e-11
2.580756809770414e+01 1.666287781606662e-11 -1.604110152614415e-11
2.589876091783737e+01 1.526232889685384e-11 -1.469474558397633e-11
2.598995373797060e+01 1.397933819588615e-11 -1.346122449120118e-11
2.608114655810383e+01 1.280405273130562e-11 -1.233109694685619e-11
2.617233937823706e+01 1.172744402038881e-11 -1.129571026769802e-11
2.626353219837029e+01 1.074123920452146e-11 -1.034713464054101e-11
2.635472501850352e+01 9.837857916868461e-12 -9.478102844715319e-12
2.644591783863675e+01 9.010354414905972e-12 -8.681954990568597e-12
2.653711065876998e+01 8.252364539651947e-12 -7.952587857534149e-12
2.662830347890321e+01 7.558057099815612e-12 -7.284408449782555e-12
2.671949629903644e+01 6.922089312456978e-12 -6.672291419118865e-12
2.681068911916967e+01 6.339565962353025e-12 -6.111540033817942e-12
2.690188193930290e+01 5.806001970336387e-12 -5.597850398722018e-12
