# omega0=1, alpha=0.2
# theta0=-0.81, theta_dot0=0.1234
# t_start=0, t_end=100, h=0.0116355
#   t          x(t)                 v(t)       
0  -8.100000000000001e-01  1.234000000000000e-01
1.163552834662887e-01 -7.849297965282684e-01 3.064411550527305e-01
2.327105669325774e-01 -7.389799932154495e-01 4.819494889395236e-01
3.490658503988658e-01 -6.731486692858786e-01 6.478217844566402e-01
4.654211338651543e-01 -5.886836735781776e-01 8.018657938804520e-01
5.817764173314427e-01 -4.870927113393153e-01 9.418142154297384e-01
6.981317007977311e-01 -3.701484747208618e-01 1.065396347822251e+00
8.144869842640196e-01 -2.398821439959280e-01 1.170465026602114e+00
9.308422677303080e-01 -9.855951877604752e-02 1.255164892732718e+00
1.047197551196597e+00 5.136362719844961e-02 1.318116026579038e+00
1.163552834662887e+00 2.073067968518439e-01 1.358578358742554e+00
1.279908118129176e+00 3.666462780670128e-01 1.376561178602782e+00
1.396263401595466e+00 5.268048195077993e-01 1.372850736284455e+00
1.512618685061755e+00 6.853391702212410e-01 1.348945947134491e+00
1.628973968528045e+00 8.400151961405257e-01 1.306912467446776e+00
1.745329251994334e+00 9.888625254558977e-01 1.249182272010223e+00
1.861684535460624e+00 1.130204414364726e+00 1.178334216489499e+00
1.978039818926913e+00 1.262662652288973e+00 1.096889493502514e+00
2.094395102393201e+00 1.385140791723580e+00 1.007146720535659e+00
2.210750385859488e+00 1.496791152730255e+00 9.110689713389325e-01
2.327105669325776e+00 1.596971789627648e+00 8.102235398929065e-01
2.443460952792063e+00 1.685199190045580e+00 7.057671574199322e-01
2.559816236258350e+00 1.761101361535862e+00 5.984654370794666e-01
2.676171519724638e+00 1.824374598250165e+00 4.887348277683606e-01
2.792526803190925e+00 1.874745941841650e+00 3.766970852399072e-01
2.908882086657212e+00 1.911942343241498e+00 2.622390218689908e-01
3.025237370123500e+00 1.935666860892958e+00 1.450732158284619e-01
3.141592653589787e+00 1.945581884362114e+00 2.479796476275306e-02
3.257947937056074e+00 1.941299299933780e+00 -9.904313438305982e-02
3.374303220522362e+00 1.922377654861905e+00 -2.269000431607983e-01
3.490658503988649e+00 1.888326666626842e+00 -3.591506255314243e-01
3.607013787454936e+00 1.838619797763809e+00 -4.960271073664198e-01
3.723369070921223e+00 1.772715996778747e+00 -6.375316464045943e-01
3.839724354387511e+00 1.690091980870383e+00 -7.833395174804262e-01
3.956079637853798e+00 1.590286444525010e+00 -9.326915898947716e-01
4.072434921320085e+00 1.472957093409041e+00 -1.084283156360436e+00
4.188790204786373e+00 1.337950148021542e+00 -1.236164023070610e+00
4.305145488252660e+00 1.185379673090522e+00 -1.385674468399158e+00
4.421500771718947e+00 1.015710664429495e+00 -1.529450943952093e+00
4.537856055185235e+00 8.298355563325902e-01 -1.663539693438273e+00
4.654211338651522e+00 6.291296365988696e-01 -1.783649454842803e+00
4.770566622117809e+00 4.154684449299347e-01 -1.885550429307719e+00
4.886921905584097e+00 1.911916510644420e-01 -1.965585522473614e+00
5.003277189050384e+00 -4.099530844094534e-02 -2.021211535299190e+00
5.119632472516671e+00 -2.781786938513645e-01 -2.051452968261373e+00
5.235987755982959e+00 -5.174358410496053e-01 -2.057151709007286e+00
5.352343039449246e+00 -7.560479247327417e-01 -2.040941381823716e+00
5.468698322915533e+00 -9.916935679496928e-01 -2.006951454790660e+00
5.585053606381821e+00 -1.222595888610822e+00 -1.960320883990456e+00
5.701408889848108e+00 -1.447607691069177e+00 -1.906642454787933e+00
5.817764173314395e+00 -1.666233786448770e+00 -1.851454737565801e+00
5.934119456780683e+00 -1.878600995066195e+00 -1.799859614773637e+00
6.050474740246970e+00 -2.085392505534189e+00 -1.756292634457461e+00
6.166830023713257e+00 -2.287763829387668e+00 -1.724431183908417e+00
6.283185307179544e+00 -2.487254235627357e+00 -1.707200955877420e+00
6.399540590645832e+00 -2.685702364567224e+00 -1.706833483326042e+00
6.515895874112119e+00 -2.885169334951589e+00 -1.724930630664855e+00
6.632251157578406e+00 -3.087867951923102e+00 -1.762499603748077e+00
6.748606441044694e+00 -3.296092874037667e+00 -1.819930432032308e+00
6.864961724510981e+00 -3.512143814964787e+00 -1.896896228763649e+00
6.981317007977268e+00 -3.738232131309925e+00 -1.992166929576187e+00
7.097672291443556e+00 -3.976360951845080e+00 -2.103343925312659e+00
7.214027574909843e+00 -4.228171372439020e+00 -2.226551185352440e+00
7.330382858376130e+00 -4.494753721954472e+00 -2.356160983053562e+00
7.446738141842418e+00 -4.776434965791818e+00 -2.484683703811542e+00
7.563093425308705e+00 -5.072570911428500e+00 -2.602989695055683e+00
7.679448708774992e+00 -5.381391294968928e+00 -2.701015896908225e+00
7.795803992241280e+00 -5.699958114555278e+00 -2.768996962876432e+00
7.912159275707567e+00 -6.024290429065514e+00 -2.799044899618518e+00
8.028514559173855e+00 -6.349674082217161e+00 -2.786663904467876e+00
8.144869842640142e+00 -6.671118623191605e+00 -2.731683791927992e+00
8.261225126106430e+00 -6.983869827147109e+00 -2.638248030540644e+00
8.377580409572717e+00 -7.283863853105706e+00 -2.513856965285149e+00
8.493935693039004e+00 -7.568031605635293e+00 -2.367832072959637e+00
8.610290976505292e+00 -7.834416029409725e+00 -2.209721016724412e+00
8.726646259971579e+00 -8.082121656122265e+00 -2.048060319801301e+00
8.843001543437866e+00 -8.311150838919010e+00 -1.889674090939123e+00
8.959356826904154e+00 -8.522188453166073e+00 -1.739470026003168e+00
9.075712110370441e+00 -8.716384601167439e+00 -1.600579958872385e+00
9.192067393836728e+00 -8.895165440992374e+00 -1.474677099780784e+00
9.308422677303016e+00 -9.060084714242276e+00 -1.362341346467362e+00
9.424777960769303e+00 -9.212716636824133e+00 -1.263396229805099e+00
9.541133244235590e+00 -9.354584550305502e+00 -1.177183754743989e+00
9.657488527701878e+00 -9.487117531894132e+00 -1.102770518357071e+00
9.773843811168165e+00 -9.611627301210198e+00 -1.039092282679397e+00
9.890199094634452e+00 -9.729298953746980e+00 -9.850492221559509e-01
1.000655437810074e+01 -9.841190520778547e+00 -9.395643650468839e-01
1.012290966156703e+01 -9.948237720478977e+00 -9.016159833251219e-01
1.023926494503331e+01 -1.005126138181314e+01 -8.702523560728601e-01
1.035562022849960e+01 -1.015097587271387e+01 -8.445951462165445e-01
1.047197551196589e+01 -1.024799748208947e+01 -8.238358483649599e-01
1.058833079543218e+01 -1.034285214166890e+01 -8.072284220841409e-01
1.070468607889846e+01 -1.043598217677909e+01 -7.940802626532076e-01
1.082104136236475e+01 -1.052775198436069e+01 -7.837429955852572e-01
1.093739664583104e+01 -1.061845268147369e+01 -7.756041294467098e-01
1.105375192929733e+01 -1.070830586891208e+01 -7.690802937585376e-01
1.117010721276361e+01 -1.079746672572348e+01 -7.636125694943370e-01
1.128646249622990e+01 -1.088602669914089e+01 -7.586642468079517e-01
1.140281777969619e+01 -1.097401608420748e+01 -7.537211878872284e-01
1.151917306316247e+01 -1.106140679885709e+01 -7.482948127509640e-01
1.163552834662876e+01 -1.114811565237580e+01 -7.419275531189232e-01
1.175188363009505e+01 -1.123400837649182e+01 -7.342004348544356e-01
1.186823891356134e+01 -1.131890463792639e+01 -7.247422628568669e-01
1.198459419702762e+01 -1.140258417981971e+01 -7.132397113228007e-01
1.210094948049391e+01 -1.148479415012330e+01 -6.994474894370284e-01
1.221730476396020e+01 -1.156525757361126e+01 -6.831976807504808e-01
1.233366004742649e+01 -1.164368281885025e+01 -6.644073621368715e-01
1.245001533089277e+01 -1.171977381215642e+01 -6.430837042207975e-01
1.256637061435906e+01 -1.179324066744350e+01 -6.193259355835729e-01
1.268272589782535e+01 -1.186381034284995e+01 -5.933238002020742e-01
1.279908118129164e+01 -1.193123690828677e+01 -5.653524223329809e-01
1.291543646475792e+01 -1.199531101491070e+01 -5.357637798903311e-01
1.303179174822421e+01 -1.205586819615270e+01 -5.049752409786126e-01
1.314814703169050e+01 -1.211279569470009e+01 -4.734558100880951e-01
1.326450231515678e+01 -1.216603759243705e+01 -4.417108435014823e-01
1.338085759862307e+01 -1.221559811128548e+01 -4.102660241284820e-01
1.349721288208936e+01 -1.226154304297815e+01 -3.796513430976825e-01
1.361356816555565e+01 -1.230399934744906e+01 -3.503857367790872e-01
1.372992344902193e+01 -1.234315302752197e+01 -3.229628956231940e-01
1.384627873248822e+01 -1.237924543930236e+01 -2.978386172311869e-01
1.396263401595451e+01 -1.241256823288136e+01 -2.754199386798620e-01
1.407898929942080e+01 -1.244345713820235e+01 -2.560561649398967e-01
1.419534458288708e+01 -1.247228481889502e+01 -2.400318178189710e-01
1.431169986635337e+01 -1.249945301566800e+01 -2.275614645272425e-01
1.442805514981966e+01 -1.252538419350149e+01 -2.187863441773440e-01
1.454441043328594e+01 -1.255051289599155e+01 -2.137726895852808e-01
1.466076571675223e+01 -1.257527699776088e+01 -2.125116351680255e-01
1.477712100021852e+01 -1.260010903322896e+01 -2.149206043244464e-01
1.489347628368481e+01 -1.262542776802819e+01 -2.208460769990696e-01
1.500983156715109e+01 -1.265163016829507e+01 -2.300676466055049e-01
1.512618685061738e+01 -1.267908391292175e+01 -2.423032822863066e-01
1.524254213408367e+01 -1.270812058428568e+01 -2.572157152144211e-01
1.535889741754996e+01 -1.273902966338292e+01 -2.744198641433229e-01
1.547525270101624e+01 -1.277205344483316e+01 -2.934912037422832e-01
1.559160798448253e+01 -1.280738297485618e+01 -3.139749578747535e-01
1.570796326794882e+01 -1.284515509985913e+01 -3.353959681830269e-01
1.582431855141511e+01 -1.288545069353120e+01 -3.572690467855580e-01
1.594067383488139e+01 -1.292829410530850e+01 -3.791095730966891e-01
1.605702911834769e+01 -1.297365384215558e+01 -4.004440434205770e-01
1.617338440181399e+01 -1.302144445888629e+01 -4.208202347842824e-01
1.628973968528030e+01 -1.307152959066807e+01 -4.398166096355623e-01
1.640609496874660e+01 -1.312372601685440e+01 -4.570505740338409e-01
1.652245025221291e+01 -1.317780860073914e+01 -4.721852161154224e-01
1.663880553567921e+01 -1.323351590879772e+01 -4.849341984232674e-01
1.675516081914552e+01 -1.329055627933693e+01 -4.950645575152630e-01
1.687151610261182e+01 -1.334861408784685e+01 -5.023972726004310e-01
1.698787138607813e+01 -1.340735594755944e+01 -5.068055926330944e-01
1.710422666954443e+01 -1.346643659030875e+01 -5.082112456553320e-01
1.722058195301074e+01 -1.352550419471117e+01 -5.065787810042229e-01
1.733693723647704e+01 -1.358420496426483e+01 -5.019084008615822e-01
1.745329251994335e+01 -1.364218680411829e+01 -4.942277120718978e-01
1.756964780340966e+01 -1.369910199793530e+01 -4.835828663125158e-01
1.768600308687596e+01 -1.375460884105648e+01 -4.700295559320803e-01
1.780235837034227e+01 -1.380837223882418e+01 -4.536242983625381e-01
1.791871365380857e+01 -1.386006332601847e+01 -4.344163820271222e-01
1.803506893727488e+01 -1.390935820245842e+01 -4.124407713582696e-01
1.815142422074118e+01 -1.395593590979761e+01 -3.877121886317103e-01
1.826777950420749e+01 -1.399947579543315e+01 -3.602205155759999e-01
1.838413478767379e+01 -1.403965442233176e+01 -3.299275959414555e-01
1.850049007114010e+01 -1.407614219030041e+01 -2.967654768161053e-01
1.861684535460640e+01 -1.410859983713114e+01 -2.606361044747063e-01
1.873320063807271e+01 -1.413667498969015e+01 -2.214124908970637e-01
1.884955592153901e+01 -1.415999893797963e+01 -1.789413891610578e-01
1.896591120500532e+01 -1.417818381190709e+01 -1.330475579020936e-01
1.908226648847162e+01 -1.419082035311828e+01 -8.353975416557494e-02
1.919862177193793e+01 -1.419747649456757e+01 -3.021866636127561e-02
1.931497705540423e+01 -1.419769698974509e+01 2.711292104746524e-02
1.943133233887054e+01 -1.419100437205770e+01 8.863736083384487e-02
1.954768762233684e+01 -1.417690157187256e+01 1.545063405565342e-01
1.966404290580315e+01 -1.415487657122905e+01 2.248215842584785e-01
1.978039818926945e+01 -1.412440952810461e+01 2.996116417928537e-01
1.989675347273576e+01 -1.408498284265323e+01 3.788045098057993e-01
2.001310875620206e+01 -1.403609464993784e+01 4.621961680880959e-01
2.012946403966837e+01 -1.397727618228898e+01 5.494157075310229e-01
2.024581932313467e+01 -1.390811331579342e+01 6.398886437265338e-01
2.036217460660098e+01 -1.382827235869421e+01 7.328012969068725e-01
2.047852989006728e+01 -1.373752971260722e+01 8.270707420085341e-01
2.059488517353359e+01 -1.363580440968219e+01 9.213266180961791e-01
2.071124045699989e+01 -1.352319170135818e+01 1.013912648775868e+00
2.082759574046620e+01 -1.339999490763268e+01 1.102916431103046e+00
2.094395102393250e+01 -1.326675177624884e+01 1.186235076082711e+00
2.106030630739881e+01 -1.312425089257660e+01 1.261680834772881e+00
2.117666159086511e+01 -1.297353353875521e+01 1.327124559556089e+00
2.129301687433142e+01 -1.281587713302030e+01 1.380666296243546e+00
2.140937215779772e+01 -1.265275815792190e+01 1.420813293786573e+00
2.152572744126403e+01 -1.248579520263946e+01 1.446639118828213e+00
2.164208272473033e+01 -1.231667594019552e+01 1.457896363454531e+00
2.175843800819664e+01 -1.214707478815561e+01 1.455061338738103e+00
2.187479329166294e+01 -1.197856985261108e+01 1.439301385998943e+00
2.199114857512925e+01 -1.181256796632735e+01 1.412370665852296e+00
2.210750385859555e+01 -1.165024512304993e+01 1.376453839565396e+00
2.222385914206186e+01 -1.149250682250787e+01 1.333984980829831e+00
2.234021442552816e+01 -1.133996955156010e+01 1.287469717960328e+00
2.245656970899447e+01 -1.119296164359931e+01 1.239333051613461e+00
2.257292499246077e+01 -1.105153965128927e+01 1.191806321657574e+00
2.268928027592708e+01 -1.091551535032035e+01 1.146857509446675e+00
2.280563555939338e+01 -1.078448845837510e+01 1.106161706277191e+00
2.292199084285969e+01 -1.065788081093360e+01 1.071104113770363e+00
2.303834612632599e+01 -1.053496874712553e+01 1.042806229831329e+00
2.315470140979230e+01 -1.041491154439628e+01 1.022166164932271e+00
2.327105669325860e+01 -1.029677471983744e+01 1.009905428594415e+00
2.338741197672491e+01 -1.017954780651059e+01 1.006616265731039e+00
2.350376726019121e+01 -1.006215680717511e+01 1.012805193992722e+00
2.362012254365752e+01 -9.943471963411817e+00 1.028929515529231e+00
2.373647782712382e+01 -9.822311815395322e+00 1.055424135304510e+00
2.385283311059013e+01 -9.697444833662427e+00 1.092715998013237e+00
2.396918839405643e+01 -9.567590244575603e+00 1.141222897341468e+00
2.408554367752274e+01 -9.431420103776848e+00 1.201332404204105e+00
2.420189896098904e+01 -9.287565239973947e+00 1.273355379556892e+00
2.431825424445535e+01 -9.134628408774503e+00 1.357447331082899e+00
2.443460952792165e+01 -8.971208819409604e+00 1.453490408979753e+00
2.455096481138796e+01 -8.795942977325360e+00 1.560930286121539e+00
2.466732009485427e+01 -8.607567200533401e+00 1.678567354904158e+00
2.478367537832057e+01 -8.405006647906239e+00 1.804312965599020e+00
2.490003066178688e+01 -8.187493398948176e+00 1.934940973688145e+00
2.501638594525318e+01 -7.954711054829176e+00 2.065892597304849e+00
2.513274122871949e+01 -7.706954792357998e+00 2.191222846265804e+00
2.524909651218579e+01 -7.445284265549019e+00 2.303794739203616e+00
2.536545179565210e+01 -7.171634962979726e+00 2.395809529309916e+00
2.548180707911840e+01 -6.888847165390065e+00 2.459685177570794e+00
2.559816236258471e+01 -6.600577500471023e+00 2.489163287472898e+00
2.571451764605101e+01 -6.311080514322952e+00 2.480383843452186e+00
2.583087292951732e+01 -6.024882968418780e+00 2.432601707733185e+00
2.594722821298362e+01 -5.746408482376989e+00 2.348296717124886e+00
2.606358349644993e+01 -5.479627855623808e+00 2.232635807858507e+00
2.617993877991623e+01 -5.227801442288308e+00 2.092475242168638e+00
2.629629406338254e+01 -4.993349133585806e+00 1.935220606790871e+00
2.641264934684884e+01 -4.777846354344295e+00 1.767841772138814e+00
2.652900463031515e+01 -4.582116594686657e+00 1.596214564757087e+00
2.664535991378145e+01 -4.406379581349938e+00 1.424817311117481e+00
2.676171519724776e+01 -4.250417224915668e+00 1.256712301635387e+00
2.687807048071406e+01 -4.113730288621970e+00 1.093705824732523e+00
2.699442576418037e+01 -3.995670909224782e+00 9.365890325615883e-01
2.711078104764667e+01 -3.895545897393888e+00 7.853904551092478e-01
2.722713633111298e+01 -3.812692002817286e+00 6.396010451941261e-01
2.734349161457928e+01 -3.746527458017691e+00 4.983556294607247e-01
2.745984689804559e+01 -3.696585077547410e+00 3.605689941871080e-01
2.757620218151189e+01 -3.662531908243357e+00 2.250322593930860e-01
2.769255746497820e+01 -3.644179563852079e+00 9.047816174846014e-02
2.780891274844450e+01 -3.641488324513541e+00 -4.437553319536428e-02
2.792526803191081e+01 -3.654567024576237e+00 -1.807956137165333e-01
2.804162331537711e+01 -3.683669747491380e+00 -3.200075788369536e-01
2.815797859884342e+01 -3.729189379587968e+00 -4.631661019883276e-01
2.827433388230972e+01 -3.791647101182413e+00 -6.113132735300338e-01
2.839068916577603e+01 -3.871675871665989e+00 -7.653155700598094e-01
2.850704444924233e+01 -3.969994887871644e+00 -9.257701791117166e-01
2.862339973270864e+01 -4.087370934621629e+00 -1.092872120746062e+00
2.873975501617494e+01 -4.224561718573012e+00 -1.266237112809436e+00
2.885611029964125e+01 -4.382236119507317e+00 -1.444683575186600e+00
2.897246558310755e+01 -4.560867532239665e+00 -1.625993114478672e+00
2.908882086657386e+01 -4.760600087416480e+00 -1.806693756640065e+00
2.920517615004016e+01 -4.981094488831179e+00 -1.981941630233155e+00
2.932153143350647e+01 -5.221370733786896e+00 -2.145604288873566e+00
2.943788671697277e+01 -5.479677512756200e+00 -2.290651500650399e+00
2.955424200043908e+01 -5.753428183982469e+00 -2.409910831857019e+00
2.967059728390538e+01 -6.039243898562067e+00 -2.497132169933786e+00
2.978695256737169e+01 -6.333129183403847e+00 -2.548152998967728e+00
2.990330785083799e+01 -6.630773472218500e+00 -2.561839700317317e+00
3.001966313430430e+01 -6.927933259852150e+00 -2.540488820284435e+00
3.013601841777060e+01 -7.220821039372547e+00 -2.489537373536030e+00
3.025237370123691e+01 -7.506423899144039e+00 -2.416679721175893e+00
3.036872898470321e+01 -7.782698540784589e+00 -2.330684461273559e+00
3.048508426816952e+01 -8.048627938885661e+00 -2.240251339571525e+00
3.060143955163582e+01 -8.304159884514243e+00 -2.153152027687263e+00
3.071779483510213e+01 -8.550067059434541e+00 -2.075742573495500e+00
3.083415011856843e+01 -8.787770361069855e+00 -2.012804465710712e+00
3.095050540203474e+01 -9.019157659200165e+00 -1.967604644957317e+00
3.106686068550104e+01 -9.246416466607881e+00 -1.942056430911662e+00
3.118321596896735e+01 -9.471886506138933e+00 -1.936887821878204e+00
3.129957125243365e+01 -9.697929258726782e+00 -1.951758073527539e+00
3.141592653589996e+01 -9.926806629614438e+00 -1.985295829585560e+00
3.153228181936626e+01 -1.016055941341818e+01 -2.035059855634633e+00
3.164863710283257e+01 -1.040087785435253e+01 -2.097449002802336e+00
3.176499238629888e+01 -1.064896119681739e+01 -2.167613938451572e+00
3.188134766976518e+01 -1.090537071551282e+01 -2.239447990371643e+00
3.199770295323149e+01 -1.116989075559128e+01 -2.305749603805126e+00
3.211405823669779e+01 -1.144142281055600e+01 -2.358638547802910e+00
3.223041352016409e+01 -1.171794462767866e+01 -2.390255434191978e+00
3.234676880363040e+01 -1.199656446790337e+01 -2.393676716751569e+00
3.246312408709670e+01 -1.227368602389808e+01 -2.363863037277298e+00
3.257947937056301e+01 -1.254527334962853e+01 -2.298386092568739e+00
3.269583465402931e+01 -1.280717593643883e+01 -2.197706138183472e+00
3.281218993749562e+01 -1.305545457737149e+01 -2.064907937927515e+00
3.292854522096192e+01 -1.328664859744202e+01 -1.904986289511618e+00
3.304490050442823e+01 -1.349794442165232e+01 -1.723908460085673e+00
3.316125578789453e+01 -1.368723466647052e+01 -1.527708944872233e+00
3.327761107136084e+01 -1.385308325784399e+01 -1.321801067966563e+00
3.339396635482714e+01 -1.399462710913841e+01 -1.110577924539739e+00
3.351032163829345e+01 -1.411144744120244e+01 -8.972802311059580e-01
3.362667692175975e+01 -1.420343783416280e+01 -6.840584451481567e-01
3.374303220522606e+01 -1.427068683032118e+01 -4.721481581349808e-01
3.385938748869236e+01 -1.431338428443836e+01 -2.620940884069866e-01
3.397574277215867e+01 -1.433175452427715e+01 -5.398213782163711e-02
3.409209805562497e+01 -1.432601597638040e+01 1.523394585668505e-01
